       #Distance (in Angstrom), Planar Average-Potential (in eV) or -Densitiy (in e/A)
  0.0000   -0.59857675E+01
  0.0980   -0.57901010E+01
  0.1960   -0.51895749E+01
  0.2939   -0.42019635E+01
  0.3919   -0.29256067E+01
  0.4899   -0.16258626E+01
  0.5879   -0.60884977E+00
  0.6859   -0.11022767E+00
  0.7839   -0.31626056E-01
  0.8818   -0.24187319E+00
  0.9798   -0.96170488E+00
  1.0778   -0.21193362E+01
  1.1758   -0.34368496E+01
  1.2738   -0.46016736E+01
  1.3718   -0.54235629E+01
  1.4697   -0.58496172E+01
  1.5677   -0.58919496E+01
  1.6657   -0.55551037E+01
  1.7637   -0.48210667E+01
  1.8617   -0.37286406E+01
  1.9597   -0.24354229E+01
  2.0576   -0.12443725E+01
  2.1556   -0.44276752E+00
  2.2536   -0.16378887E+00
  2.3516   -0.19629505E+00
  2.4496   -0.59359758E+00
  2.5475   -0.15183744E+01
  2.6455   -0.27682364E+01
  2.7435   -0.40493619E+01
  2.8415   -0.50739287E+01
  2.9395   -0.57266555E+01
  3.0375   -0.59797026E+01
  3.1354   -0.58592420E+01
  3.2334   -0.53455697E+01
  3.3314   -0.44443728E+01
  3.4294   -0.32263504E+01
  3.5274   -0.19282819E+01
  3.6254   -0.85632157E+00
  3.7233   -0.27116478E+00
  3.8213   -0.14350436E+00
  3.9193   -0.28960375E+00
  4.0173   -0.90679821E+00
  4.1153   -0.19992888E+01
  4.2132   -0.33005936E+01
  4.3112   -0.45033387E+01
  4.4092   -0.53818629E+01
  4.5072   -0.58708467E+01
  4.6052   -0.59685043E+01
  4.7032   -0.56916568E+01
  4.8011   -0.50153078E+01
  4.8991   -0.39704038E+01
  4.9971   -0.26819681E+01
  5.0951   -0.14436241E+01
  5.1931   -0.54782924E+00
  5.2911   -0.18208175E+00
  5.3890   -0.16747914E+00
  5.4870   -0.47755546E+00
  5.5850   -0.13156092E+01
  5.6830   -0.25288210E+01
  5.7810   -0.38278340E+01
  5.8790   -0.49118223E+01
  5.9769   -0.56340899E+01
  6.0749   -0.59577510E+01
  6.1729   -0.59032467E+01
  6.2709   -0.54619896E+01
  6.3689   -0.46271956E+01
  6.4668   -0.34554845E+01
  6.5648   -0.21487116E+01
  6.6628   -0.10171705E+01
  6.7608   -0.33504963E+00
  6.8588   -0.14796277E+00
  6.9568   -0.23935888E+00
  7.0547   -0.75958916E+00
  7.1527   -0.17854005E+01
  7.2507   -0.30714101E+01
  7.3487   -0.43132442E+01
  7.4467   -0.52560330E+01
  7.5447   -0.58155578E+01
  7.6426   -0.59797360E+01
  7.7406   -0.57707206E+01
  7.8386   -0.51639738E+01
  7.9366   -0.41791682E+01
  8.0346   -0.29157075E+01
  8.1325   -0.16456597E+01
  8.2305   -0.66912538E+00
  8.3285   -0.21234062E+00
  8.4265   -0.15340208E+00
  8.5245   -0.38633847E+00
  8.6225   -0.11322972E+01
  8.7204   -0.22990762E+01
  8.8184   -0.36061809E+01
  8.9164   -0.47442062E+01
  9.0144   -0.55341006E+01
  9.1124   -0.59274857E+01
  9.2104   -0.59382733E+01
  9.3083   -0.55675188E+01
  9.4063   -0.47995537E+01
  9.5043   -0.36782541E+01
  9.6023   -0.23727466E+01
  9.7003   -0.11893038E+01
  9.7983   -0.41233428E+00
  9.8962   -0.15478883E+00
  9.9942   -0.19937899E+00
 10.0922   -0.62579578E+00
 10.1902   -0.15774220E+01
 10.2882   -0.28386944E+01
 10.3861   -0.41130631E+01
 10.4841   -0.51192685E+01
 10.5821   -0.57505547E+01
 10.6801   -0.59826318E+01
 10.7781   -0.58418705E+01
 10.8761   -0.53063849E+01
 10.9740   -0.43855828E+01
 11.0720   -0.31560027E+01
 11.1700   -0.18643493E+01
 11.2680   -0.81485222E+00
 11.3660   -0.26134852E+00
 11.4640   -0.14956923E+00
 11.5619   -0.31202187E+00
 11.6599   -0.95622707E+00
 11.7579   -0.20616707E+01
 11.8559   -0.33569227E+01
 11.9539   -0.45342777E+01
 12.0518   -0.53797351E+01
 12.1498   -0.58342251E+01
 12.2478   -0.59000098E+01
 12.3458   -0.55908545E+01
 12.4438   -0.48820437E+01
 12.5418   -0.38078324E+01
 12.6397   -0.25032458E+01
 12.7377   -0.12684459E+01
 12.8357   -0.39476849E+00
 12.9337   -0.55367569E-01
 13.0317   -0.57616058E-01
 13.1297   -0.40377943E+00
 13.2276   -0.12851889E+01
 13.3256   -0.25314543E+01
 13.4236   -0.38485770E+01
 13.5216   -0.49373251E+01
 13.6196   -0.56563589E+01
 13.7176   -0.59686144E+01
 13.8155   -0.58917747E+01
 13.9135   -0.54115398E+01
 14.0115   -0.45188464E+01
 14.1095   -0.32671962E+01
 14.2075   -0.18540021E+01
 14.3054   -0.56999560E+00
 14.4034    0.34400071E+00
 14.5014    0.88819532E+00
 14.5994    0.12877226E+01
 14.6974    0.15890309E+01
 14.7954    0.17984885E+01
 14.8933    0.19504696E+01
 14.9913    0.20573934E+01
 15.0893    0.21368776E+01
 15.1873    0.21931984E+01
 15.2853    0.22358697E+01
 15.3833    0.22657748E+01
 15.4812    0.22889744E+01
 15.5792    0.23049417E+01
 15.6772    0.23178045E+01
 15.7752    0.23263414E+01
 15.8732    0.23336537E+01
 15.9712    0.23382080E+01
 16.0691    0.23424268E+01
 16.1671    0.23447504E+01
 16.2651    0.23472982E+01
 16.3631    0.23484969E+01
 16.4611    0.23501166E+01
 16.5590    0.23506461E+01
 16.6570    0.23517402E+01
 16.7550    0.23519531E+01
 16.8530    0.23527435E+01
 16.9510    0.23527501E+01
 17.0490    0.23533751E+01
 17.1469    0.23533156E+01
 17.2449    0.23538302E+01
 17.3429    0.23536950E+01
 17.4409    0.23541466E+01
 17.5389    0.23540151E+01
 17.6369    0.23544218E+01
 17.7348    0.23542585E+01
 17.8328    0.23546362E+01
 17.9308    0.23544926E+01
 18.0288    0.23548453E+01
 18.1268    0.23546827E+01
 18.2247    0.23550181E+01
 18.3227    0.23548785E+01
 18.4207    0.23551976E+01
 18.5187    0.23550427E+01
 18.6167    0.23553480E+01
 18.7147    0.23552149E+01
 18.8126    0.23555085E+01
 18.9106    0.23553619E+01
 19.0086    0.23556438E+01
 19.1066    0.23555168E+01
 19.2046    0.23557894E+01
 19.3026    0.23556497E+01
 19.4005    0.23559115E+01
 19.4985    0.23557895E+01
 19.5965    0.23560441E+01
 19.6945    0.23559103E+01
 19.7925    0.23561547E+01
 19.8905    0.23560364E+01
 19.9884    0.23562753E+01
 20.0864    0.23561459E+01
 20.1844    0.23563749E+01
 20.2824    0.23562594E+01
 20.3804    0.23564841E+01
 20.4783    0.23563580E+01
 20.5763    0.23565732E+01
 20.6743    0.23564595E+01
 20.7723    0.23566717E+01
 20.8703    0.23565478E+01
 20.9683    0.23567505E+01
 21.0662    0.23566378E+01
 21.1642    0.23568384E+01
 21.2622    0.23567162E+01
 21.3602    0.23569075E+01
 21.4582    0.23567952E+01
 21.5562    0.23569854E+01
 21.6541    0.23568640E+01
 21.7521    0.23570449E+01
 21.8501    0.23569324E+01
 21.9481    0.23571130E+01
 22.0461    0.23569919E+01
 22.1440    0.23571633E+01
 22.2420    0.23570501E+01
 22.3400    0.23572219E+01
 22.4380    0.23571004E+01
 22.5360    0.23572628E+01
 22.6340    0.23571483E+01
 22.7319    0.23573120E+01
 22.8299    0.23571898E+01
 22.9279    0.23573441E+01
 23.0259    0.23572280E+01
 23.1239    0.23573840E+01
 23.2219    0.23572607E+01
 23.3198    0.23574073E+01
 23.4178    0.23572892E+01
 23.5158    0.23574382E+01
 23.6138    0.23573132E+01
 23.7118    0.23574527E+01
 23.8098    0.23573321E+01
 23.9077    0.23574745E+01
 24.0057    0.23573474E+01
 24.1037    0.23574801E+01
 24.2017    0.23573568E+01
 24.2997    0.23574930E+01
 24.3976    0.23573636E+01
 24.4956    0.23574899E+01
 24.5936    0.23573635E+01
 24.6916    0.23574939E+01
 24.7896    0.23573618E+01
 24.8876    0.23574822E+01
 24.9855    0.23573524E+01
 25.0835    0.23574773E+01
 25.1815    0.23573422E+01
 25.2795    0.23574569E+01
 25.3775    0.23573232E+01
 25.4755    0.23574430E+01
 25.5734    0.23573043E+01
 25.6714    0.23574136E+01
 25.7694    0.23572757E+01
 25.8674    0.23573907E+01
 25.9654    0.23572483E+01
 26.0633    0.23573525E+01
 26.1613    0.23572100E+01
 26.2593    0.23573204E+01
 26.3573    0.23571739E+01
 26.4553    0.23572733E+01
 26.5533    0.23571259E+01
 26.6512    0.23572320E+01
 26.7492    0.23570809E+01
 26.8472    0.23571757E+01
 26.9452    0.23570228E+01
 27.0432    0.23571249E+01
 27.1412    0.23569687E+01
 27.2391    0.23570592E+01
 27.3371    0.23569005E+01
 27.4351    0.23569988E+01
 27.5331    0.23568372E+01
 27.6311    0.23569235E+01
 27.7291    0.23567584E+01
 27.8270    0.23568532E+01
 27.9250    0.23566857E+01
 28.0230    0.23567680E+01
 28.1210    0.23565961E+01
 28.2190    0.23566876E+01
 28.3169    0.23565137E+01
 28.4149    0.23565921E+01
 28.5129    0.23564126E+01
 28.6109    0.23565009E+01
 28.7089    0.23563201E+01
 28.8069    0.23563949E+01
 28.9048    0.23562073E+01
 29.0028    0.23562927E+01
 29.1008    0.23561043E+01
 29.1988    0.23561755E+01
 29.2968    0.23559790E+01
 29.3948    0.23560618E+01
 29.4927    0.23558650E+01
 29.5907    0.23559328E+01
 29.6887    0.23557265E+01
 29.7867    0.23558067E+01
 29.8847    0.23556008E+01
 29.9827    0.23556650E+01
 30.0806    0.23554476E+01
 30.1786    0.23555249E+01
 30.2766    0.23553085E+01
 30.3746    0.23553685E+01
 30.4726    0.23551386E+01
 30.5705    0.23552124E+01
 30.6685    0.23549836E+01
 30.7665    0.23550375E+01
 30.8645    0.23547913E+01
 30.9625    0.23548583E+01
 31.0605    0.23546121E+01
 31.1584    0.23546549E+01
 31.2564    0.23543844E+01
 31.3544    0.23544347E+01
 31.4524    0.23541565E+01
 31.5504    0.23541687E+01
 31.6484    0.23538493E+01
 31.7463    0.23538512E+01
 31.8443    0.23534978E+01
 31.9423    0.23534190E+01
 32.0403    0.23529666E+01
 32.1383    0.23528073E+01
 32.2362    0.23522325E+01
 32.3342    0.23518684E+01
 32.4322    0.23510246E+01
 32.5302    0.23503449E+01
 32.6282    0.23490580E+01
 32.7262    0.23477373E+01
 32.8241    0.23456151E+01
 32.9221    0.23432261E+01
 33.0201    0.23396371E+01
 33.1181    0.23351699E+01
 33.2161    0.23287853E+01
 33.3141    0.23205989E+01
 33.4120    0.23092225E+01
 33.5100    0.22941720E+01
 33.6080    0.22734667E+01
 33.7060    0.22455921E+01
 33.8040    0.22073234E+01
 33.9020    0.21551751E+01
 33.9999    0.20836960E+01
 34.0979    0.19853040E+01
 34.1959    0.18490536E+01
 34.2939    0.16575637E+01
 34.3919    0.13882884E+01
 34.4898    0.10138054E+01
 34.5878    0.53245889E+00
 34.6858   -0.25586022E+00
 34.7838   -0.14509139E+01
 34.8818   -0.28557777E+01
 34.9798   -0.41831516E+01
 35.0777   -0.51910881E+01
 35.1757   -0.57940176E+01
